time,signal
0.0,1.56
0.004,1.24
0.008,0.92
0.012,0.6000000000000001
0.016,0.28
0.02,-0.0857142857142857
0.024,-0.3512499999999999
0.028,-0.31625
0.032,-0.27875
0.036000000000000004,-0.23374999999999985
0.04,-0.19875
0.044,-0.19375
0.048,-0.19875
0.052000000000000005,-0.23375000000000004
0.056,-0.2557142857142857
0.06,-0.2385714285714286
0.064,-0.24
0.068,-0.26
0.07200000000000001,-0.24749999999999972
0.076,-0.2025
0.08,-0.2125
0.084,-0.2775000000000002
0.088,-0.28
0.092,-0.22
0.096,-0.2075
0.1,-0.2425000000000001
0.10400000000000001,-0.2628571428571429
0.108,-0.2685714285714285
0.112,-0.24
0.116,-0.2
0.12,-0.2649999999999998
0.124,-0.365
0.128,-0.27375
0.132,-0.11875
0.136,-0.1962500000000004
0.14,-0.3512500000000009
0.14400000000000002,-0.3471428571428563
0.148,-0.29
0.152,-0.31
0.156,-0.33
0.16,-0.3399999999999999
0.164,-0.35
0.168,-0.355
0.17200000000000001,-0.35999999999999943
0.176,-0.32
0.18,-0.28
0.184,-0.185
0.188,-0.09
0.192,-0.25
0.196,-0.33375
0.2,-0.18875
0.20400000000000001,-0.09000000000000027
0.20800000000000002,-0.13000000000000023
0.212,-0.15125
0.216,-0.1162499999999999
0.22,-0.07625
0.224,-0.0212499999999999
0.228,0.0285714285714285
0.232,0.0628571428571428
0.23600000000000002,0.12500000000000072
0.24,0.2149999999999998
0.244,0.27
0.248,0.29
0.252,0.2774999999999999
0.256,0.2324999999999999
0.26,0.25
0.264,0.3299999999999999
0.268,0.3242857142857143
0.272,0.2328571428571428
0.276,0.16125
0.28,0.0962499999999999
0.28400000000000003,0.17000000000000226
0.28800000000000003,0.29000000000000103
0.292,0.26
0.296,0.18
0.3,0.1375
0.304,0.1075
0.308,0.07
0.312,0.03
0.316,0.025
0.32,0.02
0.324,0.0
0.328,-0.02
0.332,-0.115
0.336,-0.21
0.34,-0.1449999999999995
0.34400000000000003,-0.08000000000000188
0.34800000000000003,-0.15000000000000188
0.352,-0.22
0.356,-0.18
0.36,-0.1475
0.364,-0.1375
0.368,-0.125
0.372,-0.105
0.376,-0.1149999999999999
0.38,-0.2149999999999999
0.384,-0.2799999999999999
0.388,-0.24
0.392,-0.2314285714285714
0.396,-0.3171428571428571
0.4,-0.3475
0.404,-0.3225
0.40800000000000003,-0.3425000000000011
0.41200000000000003,-0.40750000000000086
0.41600000000000004,-0.4199999999999988
0.42,-0.38
0.424,-0.3275
0.428,-0.2625
0.432,-0.2425
0.436,-0.2675
0.44,-0.2742857142857143
0.444,-0.2628571428571428
0.448,-0.26375
0.452,-0.26875
0.456,-0.25875
0.46,-0.24375
0.464,-0.24
0.468,-0.24
0.47200000000000003,-0.3750000000000049
0.47600000000000003,-0.5550000000000003
0.48,-0.3985714285714286
0.484,-0.13
0.488,-0.185
0.492,-0.24
0.496,-0.24
0.5,-0.24
0.504,-0.175
0.508,-0.11
0.512,-0.135
0.516,-0.16
0.52,-0.2
0.524,-0.22125
0.528,-0.18625
0.532,-0.14
0.536,-0.06
0.54,-0.02625
0.544,-0.13125
0.548,-0.225
0.552,-0.285
0.556,-0.3085714285714286
0.56,-0.2228571428571428
0.5640000000000001,-0.1975000000000002
0.5680000000000001,-0.2325000000000007
0.5720000000000001,-0.2449999999999997
0.5760000000000001,-0.2349999999999997
0.58,-0.2275
0.584,-0.2225
0.588,-0.2025
0.592,-0.1674999999999999
0.596,-0.12
0.6,-0.06
0.604,-0.0528571428571428
0.608,-0.0985714285714285
0.612,-0.15875
0.616,-0.22375
0.62,-0.2475
0.624,-0.2575
0.628,-0.24125
0.632,-0.21625
0.636,-0.28125
0.64,-0.37625
0.644,-0.28
0.648,-0.12
0.652,-0.09
0.656,-0.06
0.66,-0.21
0.664,-0.36
0.668,-0.265
0.672,-0.17
0.676,-0.26
0.68,-0.35
0.684,-0.3199999999999995
0.6880000000000001,-0.29
0.6920000000000001,-0.29
0.6960000000000001,-0.2837499999999993
0.7000000000000001,-0.2587499999999993
0.704,-0.22
0.708,-0.14
0.712,-0.11
0.716,-0.2299999999999999
0.72,-0.2775
0.724,-0.1074999999999999
0.728,0.1107142857142857
0.732,0.4735714285714286
0.736,0.81375
0.74,1.13125
0.744,1.44875
0.748,1.76625
0.752,1.84625
0.756,1.6887500000000002
0.76,1.4500000000000002
0.764,1.13
0.768,0.7871428571428571
0.772,0.4214285714285715
0.776,0.09
0.78,-0.23
0.784,-0.35875
0.788,-0.42375
0.792,-0.41375
0.796,-0.37875
0.8,-0.30625
0.804,-0.22125
0.808,-0.2514285714285714
0.812,-0.32
0.8160000000000001,-0.4050000000000012
0.8200000000000001,-0.4899999999999985
0.8240000000000001,-0.4349999999999985
0.8280000000000001,-0.3799999999999995
0.8320000000000001,-0.3649999999999995
0.836,-0.35
0.84,-0.3349999999999999
0.844,-0.32
0.848,-0.365
0.852,-0.41
0.856,-0.3071428571428571
0.86,-0.25
0.864,-0.33
0.868,-0.37875
0.872,-0.33375
0.876,-0.3025
0.88,-0.3125
0.884,-0.34625
0.888,-0.45125
0.892,-0.53
0.896,-0.53
0.9,-0.55
0.904,-0.59
0.908,-0.5525
0.912,-0.4375
0.916,-0.35
0.92,-0.29
0.924,-0.3125
0.928,-0.4175
0.932,-0.4574999999999998
0.936,-0.4324999999999994
0.9400000000000001,-0.38857142857142507
0.9440000000000001,-0.32571428571428296
0.9480000000000001,-0.2912499999999986
0.9520000000000001,-0.26624999999999777
0.9560000000000001,-0.21124999999999639
0.96,-0.14625
0.964,-0.23875
0.968,-0.38375
0.972,-0.23625
0.976,0.0087499999999999
0.98,0.0442857142857142
0.984,0.01
0.988,0.005
0.992,0.0
0.996,0.025
1.0,0.05
1.004,0.055
1.008,0.06
1.012,0.17
1.016,0.28
1.02,0.2971428571428574
1.024,0.2912499999999979
1.028,0.2162499999999979
1.032,0.1274999999999964
1.036,-0.0025000000000036
1.04,-0.0399999999999933
1.044,0.2000000000000066
1.048,0.3574999999999975
1.052,0.2674999999999975
1.056,0.1942857142857137
1.06,0.1714285714285712
1.064,0.135
1.068,0.085
1.072,0.0475
1.076,0.0225
1.08,0.03
1.084,0.0699999999999999
1.088,0.0625
1.092,0.0074999999999999
1.096,-0.0925
1.1,-0.2374999999999999
1.104,-0.2842857142857138
1.108,-0.2328571428571416
1.112,-0.1824999999999986
1.116,-0.1324999999999986
1.12,-0.1237500000000001
1.124,-0.1287500000000001
1.1280000000000001,-0.19000000000000664
1.1320000000000001,-0.27000000000000535
1.1360000000000001,-0.3275000000000042
1.1400000000000001,-0.37750000000000067
1.1440000000000001,-0.364285714285711
1.1480000000000001,-0.3299999999999894
1.1520000000000001,-0.23499999999998944
1.156,-0.14
1.16,-0.11
1.164,-0.08
1.168,-0.07
1.172,-0.06
1.176,0.035
1.18,0.13
1.184,0.175
1.188,0.22
1.192,0.1628571428571437
1.196,0.1137500000000006
1.2,0.0887500000000006
1.204,0.0562500000000015
1.208,0.0012500000000015
1.212,-0.0674999999999969
1.216,-0.1774999999999969
1.22,-0.2824999999999975
1.224,-0.3724999999999975
1.228,-0.4142857142857167
1.232,-0.3114285714285723
1.236,-0.2725
1.24,-0.2975
1.244,-0.26
1.248,-0.16
1.252,-0.1675
1.256,-0.2825
1.26,-0.375
1.264,-0.445
1.268,-0.4028571428571416
1.272,-0.2485714285714248
1.276,-0.1387499999999973
1.28,-0.0437499999999973
1.284,0.0325000000000019
1.288,0.1025000000000019
1.292,0.1012499999999993
1.296,0.0762499999999993
1.3,0.1562500000000032
1.304,0.2712500000000032
1.308,0.5721428571428628
1.312,0.935
1.316,1.2525
1.32,1.57
1.324,1.8875
1.328,2.205
1.332,1.885
1.336,1.565
1.34,1.245
1.344,0.925
1.348,0.605
1.352,0.285
1.356,-0.0807142857142914
1.36,-0.3856250000000034
1.364,-0.5081250000000034
1.368,-0.5874999999999986
1.372,-0.5374999999999986
1.3760000000000001,-0.5125000000000042
1.3800000000000001,-0.5625000000000051
1.3840000000000001,-0.63000000000001
1.3880000000000001,-0.7500000000000071
1.3920000000000001,-0.8171428571428491
1.3960000000000001,-0.7257142857142793
1.4000000000000001,-0.6875000000000017
1.4040000000000001,-0.7024999999999979
1.408,-0.6499999999999999
1.412,-0.53
1.416,-0.515
1.42,-0.605
1.424,-0.67
1.428,-0.71
1.432,-0.6699999999999999
1.436,-0.55
1.44,-0.5385714285714278
1.444,-0.6357142857142835
1.448,-0.5812500000000029
1.452,-0.4762500000000029
1.456,-0.4649999999999994
1.46,-0.4849999999999994
1.464,-0.5499999999999978
1.468,-0.6299999999999978
1.472,-0.5712500000000029
1.476,-0.4662500000000029
1.48,-0.6199999999999962
1.484,-0.86
1.488,-0.7849999999999999
1.492,-0.71
1.496,-0.71
1.5,-0.71
1.504,-0.72
1.508,-0.73
1.512,-0.755
1.516,-0.78
1.52,-0.7971428571428575
1.524,-0.818750000000001
1.528,-0.853750000000001
1.532,-0.8462499999999963
1.536,-0.7112499999999963
1.54,-0.6500000000000045
1.544,-0.8100000000000045
1.548,-0.8924999999999959
1.552,-0.7424999999999958
1.556,-0.6257142857142853
1.56,-0.6085714285714284
1.564,-0.5549999999999999
1.568,-0.4649999999999999
1.572,-0.39
1.576,-0.3299999999999999
1.58,-0.325
1.584,-0.375
1.588,-0.375
1.592,-0.325
1.596,-0.265
1.6,-0.195
1.604,-0.1628571428571429
1.608,-0.1685714285714287
1.612,-0.2075000000000014
1.616,-0.2575000000000014
1.62,-0.1537499999999957
1.624,0.0012500000000043
1.6280000000000001,-0.001250000000004553
1.6320000000000001,-0.056250000000002055
1.6360000000000001,-0.06624999999999952
1.6400000000000001,-0.061250000000003295
1.6440000000000001,-0.12428571428572235
1.6480000000000001,-0.20999999999999105
1.6520000000000001,-0.12999999999999107
1.6560000000000001,-0.05000000000000548
1.6600000000000001,-0.10000000000000547
1.6640000000000001,-0.14999999999999886
1.668,-0.14
1.672,-0.13
1.676,-0.155
1.68,-0.18
1.684,-0.25
1.688,-0.32
1.692,-0.274285714285715
1.696,-0.2250000000000016
1.7,-0.1650000000000016
1.704,-0.1587499999999957
1.708,-0.3137499999999957
1.712,-0.4062500000000026
1.716,-0.3112500000000026
1.72,-0.2387500000000001
1.724,-0.2337500000000001
1.728,-0.2528571428571406
1.732,-0.3442857142857136
1.736,-0.4075
1.74,-0.4425
1.744,-0.4
1.748,-0.28
1.752,-0.2325
1.756,-0.2575
1.76,-0.2775
1.764,-0.2925
1.768,-0.2885714285714283
1.772,-0.2657142857142852
1.776,-0.2900000000000011
1.78,-0.3300000000000011
1.784,-0.313749999999999
1.788,-0.278749999999999
1.792,-0.1912499999999971
1.796,-0.086249999999997
1.8,-0.0750000000000005
1.804,-0.0950000000000005
1.808,-0.1857142857142875
1.812,-0.3
1.816,-0.2
1.82,-0.1
1.824,-0.11
1.828,-0.12
1.832,-0.18
1.836,-0.24
1.84,-0.22
1.844,-0.2
1.848,-0.21
1.852,-0.22
1.856,-0.0542857142857116
1.86,0.0399999999999966
1.864,-0.0800000000000033
1.868,-0.152499999999998
1.872,-0.082499999999998
1.8760000000000001,-0.043750000000004556
1.8800000000000001,-0.09875000000000518
1.8840000000000001,-0.16500000000000825
1.8880000000000001,-0.26500000000000673
1.8920000000000001,-0.33571428571428424
1.8960000000000001,-0.3185714285714247
1.9000000000000001,-0.2624999999999894
1.9040000000000001,-0.16749999999999235
1.9080000000000001,-0.12500000000000105
1.9120000000000001,-0.13500000000000134
1.9160000000000001,-0.15000000000000221
1.92,-0.1699999999999999
1.924,-0.1775
1.928,-0.1725
1.932,-0.13
1.936,-0.05
1.94,-0.01
1.944,-0.01
1.948,-0.0699999999999977
1.952,-0.1499999999999978
1.956,-0.1400000000000011
1.96,-0.1000000000000011
1.964,-0.0637500000000009
1.968,-0.0287500000000009
1.972,-0.0912499999999973
1.976,-0.1862499999999973
1.98,-0.1842857142857148
1.984,-0.15
1.988,-0.13
1.992,-0.11
1.996,-0.15
2.0,-0.19
2.004,-0.205
2.008,-0.22
2.012,-0.145
2.016,-0.07
2.02,-0.0814285714285712
2.024,-0.0812500000000009
2.028,-0.0462500000000009
2.032,-0.0562499999999959
2.036,-0.2012499999999959
2.04,-0.2837500000000029
2.044,-0.1787500000000029
2.048,-0.0987500000000001
2.052,-0.0937500000000001
2.056,-0.102857142857142
2.06,-0.1542857142857159
2.064,-0.0874999999999897
2.068,0.0975000000000102
2.072,0.3487500000000176
2.076,0.6662500000000176
2.08,0.9837500000000176
2.084,1.3012500000000176
2.088,1.6187500000000177
2.092,1.9362500000000176
2.096,2.0162499999999914
2.1,1.8587499999999912
2.104,1.5971428571428397
2.108,1.2314285714285598
2.112,0.899999999999991
2.116,0.5799999999999911
2.12,0.2599999999999911
2.124,-0.0600000000000089
2.128,-0.2712500000000049
2.132,-0.4462500000000048
2.136,-0.4149999999999972
2.14,-0.3149999999999971
2.144,-0.3200000000000006
2.148,-0.36
2.152,-0.3299999999999999
2.156,-0.3
2.16,-0.31
2.164,-0.32
2.168,-0.35
2.172,-0.38
2.176,-0.33
2.18,-0.28
2.184,-0.26
2.188,-0.24
2.192,-0.222857142857142
2.196,-0.2200000000000033
2.2,-0.2600000000000033
2.204,-0.2912500000000004
2.208,-0.2962500000000004
2.212,-0.3
2.216,-0.3
2.22,-0.3075000000000025
2.224,-0.3375000000000024
2.228,-0.3657142857142875
2.232,-0.38857142857143
2.236,-0.3874999999999986
2.24,-0.3624999999999986
2.244,-0.377500000000003
2.248,-0.432500000000003
2.2520000000000002,-0.4099999999999834
2.2560000000000002,-0.30999999999999367
2.2600000000000002,-0.30250000000001415
2.2640000000000002,-0.38750000000001794
2.2680000000000002,-0.5071428571428815
2.2720000000000002,-0.6614285714285677
2.2760000000000002,-0.5837499999999785
2.2800000000000002,-0.4287499999999906
2.2840000000000003,-0.3824999999999997
2.2880000000000003,-0.3724999999999997
2.2920000000000003,-0.3624999999999997
2.2960000000000003,-0.3524999999999997
2.3000000000000003,-0.376250000000001
2.3040000000000003,-0.4112500000000009
2.308,-0.3900000000000019
2.312,-0.35
2.316,-0.31
2.32,-0.27
2.324,-0.27
2.328,-0.27
2.332,-0.25
2.336,-0.23
2.34,-0.125
2.344,-0.02
2.348,0.005
2.352,0.03
2.356,0.0357142857142856
2.36,0.0524999999999986
2.364,0.1024999999999986
2.368,0.1499999999999989
2.372,0.1899999999999989
2.376,0.2175000000000002
2.38,0.2075000000000003
2.384,0.1887500000000012
2.388,0.1437500000000012
2.392,0.1157142857142849
2.396,0.1385714285714274
2.4,0.122500000000003
2.404,0.067500000000003
2.408,0.0175000000000025
2.412,-0.0274999999999974
2.416,-0.0799999999999966
2.42,-0.1399999999999966
2.424,-0.1150000000000061
2.428,-0.0050000000000061
2.432,0.0025000000000052
2.436,-0.0924999999999947
2.44,-0.1228571428571439
2.444,-0.088571428571428
2.448,-0.0912500000000004
2.452,-0.1062500000000004
2.456,-0.1362500000000009
2.46,-0.1712500000000009
2.464,-0.2025000000000008
2.468,-0.2325000000000008
2.472,-0.2062499999999987
2.476,-0.1612499999999987
2.48,-0.2442857142857162
2.484,-0.37
2.488,-0.365
2.492,-0.36
2.496,-0.345
2.5,-0.33
2.504,-0.325
2.508,-0.32
2.512,-0.315
2.516,-0.31
2.52,-0.2928571428571431
2.524,-0.2874999999999992
2.528,-0.3174999999999991
2.532,-0.3462499999999993
2.536,-0.3712499999999993
2.54,-0.3787500000000012
2.544,-0.3337500000000012
2.548,-0.3099999999999989
2.552,-0.3499999999999988
2.556,-0.3771428571428573
2.56,-0.3657142857142853
2.564,-0.3625000000000002
2.568,-0.3675000000000002
2.572,-0.3649999999999994
2.576,-0.3549999999999994
2.58,-0.3474999999999997
2.584,-0.3424999999999997
2.588,-0.322499999999998
2.592,-0.2874999999999981
2.596,-0.2975000000000031
2.6,-0.352500000000003
2.604,-0.3685714285714275
2.608,-0.345714285714285
2.612,-0.3324999999999997
2.616,-0.3224999999999997
2.62,-0.3049999999999994
2.624,-0.2849999999999995
2.628,-0.2724999999999997
2.632,-0.2624999999999997
2.636,-0.286250000000001
2.64,-0.321250000000001
2.644,-0.2571428571428556
2.648,-0.16
2.652,-0.095
2.656,-0.03
2.66,-0.09
2.664,-0.15
2.668,-0.155
2.672,-0.16
2.676,-0.155
2.68,-0.15
2.684,-0.185
2.688,-0.22
2.692,-0.1914285714285701
2.696,-0.1937500000000079
2.7,-0.2887500000000079
2.704,-0.3625000000000008
2.708,-0.3725000000000008
2.712,-0.3787499999999996
2.716,-0.3737499999999996
2.72,-0.3662499999999987
2.724,-0.3512499999999988
2.728,-0.3299999999999968
2.732,-0.2899999999999975
2.736,-0.2950000000000028
2.74,-0.3450000000000027
2.744,-0.3549999999999983
2.748,-0.3249999999999983
2.7520000000000002,-0.30249999999999744
2.7560000000000002,-0.28750000000000003
2.7600000000000002,-0.29500000000000504
2.7640000000000002,-0.3250000000000087
2.7680000000000002,-0.38857142857144394
2.7720000000000002,-0.4857142857142943
2.7760000000000002,-0.5362500000000049
2.7800000000000002,-0.5712499999999832
2.7840000000000003,-0.4112499999999937
2.7880000000000003,-0.1862499999999937
2.7920000000000003,0.1081250000000088
2.7960000000000003,0.4256250000000088
2.8000000000000003,0.7431250000000088
2.8040000000000003,1.0606250000000088
2.8080000000000003,1.41214285714288
2.8120000000000003,1.7749999999999913
2.816,1.6975
2.82,1.62
2.824,1.3
2.828,0.98
2.832,0.66
2.836,0.34
2.84,0.02
2.844,-0.3
2.848,-0.4349999999999999
2.852,-0.57
2.856,-0.524285714285715
2.86,-0.4974999999999991
2.864,-0.5274999999999992
2.868,-0.5487500000000002
2.872,-0.5437500000000002
2.876,-0.5375000000000003
2.88,-0.5275000000000003
2.884,-0.5125000000000008
2.888,-0.4825000000000009
2.892,-0.442857142857145
2.896,-0.3742857142857175
2.9,-0.4049999999999928
2.904,-0.5349999999999928
2.908,-0.5700000000000033
2.912,-0.5100000000000033
2.916,-0.4775000000000002
2.92,-0.4725000000000002
2.924,-0.4999999999999966
2.928,-0.5599999999999966
2.932,-0.5550000000000038
2.936,-0.4850000000000039
2.94,-0.4785714285714267
2.944,-0.5357142857142867
2.948,-0.5199999999999989
2.952,-0.4799999999999988
2.956,-0.4662499999999998
2.96,-0.4612499999999999
2.964,-0.4637500000000001
2.968,-0.4687500000000001
2.972,-0.4324999999999986
2.976,-0.3824999999999986
2.98,-0.43857142857143
2.984,-0.53
2.988,-0.575
2.992,-0.62
2.996,-0.5
3.0,-0.38
3.004,-0.43
3.008,-0.48
3.012,-0.56
3.016,-0.64
3.02,-0.6114285714285719
3.024,-0.5650000000000027
3.028,-0.4650000000000027
3.032,-0.3949999999999994
3.036,-0.4149999999999994
3.04,-0.4212500000000009
3.044,-0.386250000000001
3.048,-0.3562500000000004
3.052,-0.3412500000000004
3.056,-0.3271428571428573
3.06,-0.3157142857142853
3.064,-0.2574999999999942
3.068,-0.1524999999999941
3.072,-0.0974999999999997
3.076,-0.0924999999999997
3.08,-0.0874999999999997
3.084,-0.0824999999999997
3.088,-0.1050000000000027
3.092,-0.1550000000000027
3.096,-0.1474999999999963
3.1,-0.0824999999999963
3.104,-0.0328571428571412
3.108,0.0014285714285725
3.112,0.01
3.116,0.01
3.12,-0.0500000000000022
3.124,-0.1300000000000022
3.128,-0.097499999999998
3.132,-0.027499999999998
3.136,-0.0550000000000016
3.14,-0.1150000000000016
3.144,-0.1728571428571437
3.148,-0.23
3.152,-0.215
3.156,-0.2
3.16,-0.2
3.164,-0.2
3.168,-0.205
3.172,-0.21
3.176,-0.2799999999999999
3.18,-0.35
3.184,-0.41
3.188,-0.47
3.192,-0.4185714285714261
3.196,-0.3825000000000008
3.2,-0.3925000000000008
3.204,-0.3937499999999979
3.208,-0.3687499999999979
3.212,-0.3474999999999991
3.216,-0.3374999999999992
3.22,-0.3462500000000054
3.224,-0.4112500000000054
3.228,-0.447142857142853
3.232,-0.3957142857142824
3.236,-0.3674999999999997
3.24,-0.3624999999999997
3.244,-0.3675000000000008
3.248,-0.3825000000000008
3.2520000000000002,-0.39250000000000085
3.2560000000000002,-0.3974999999999917
3.2600000000000002,-0.31999999999997336
3.2640000000000002,-0.15999999999998094
3.2680000000000002,-0.06857142857142486
3.2720000000000002,-0.04571428571427761
3.2760000000000002,0.020000000000011082
3.2800000000000002,0.10000000000001025
3.2840000000000003,0.1725000000000019
3.2880000000000003,0.2425000000000019
3.2920000000000003,0.2825000000000008
3.2960000000000003,0.3125000000000008
3.3000000000000003,0.4737500000000056
3.3040000000000003,0.6787500000000057
3.3080000000000003,0.974285714285735
3.3120000000000003,1.300000000000006
3.3160000000000003,1.3550000000000062
3.3200000000000003,1.4099999999999644
3.3240000000000003,1.0899999999999643
3.3280000000000003,0.7699999999999645
3.332,0.45
3.336,0.13
3.34,0.44
3.344,0.75
3.348,0.685
3.352,0.62
3.356,0.2542857142857201
3.36,-0.0999999999999911
3.364,-0.4199999999999911
3.368,-0.687499999999997
3.372,-0.797499999999997
3.376,-0.8325000000000052
3.38,-0.6425000000000053
3.384,-0.4937500000000007
3.388,-0.4687500000000007
3.392,-0.4514285714285712
3.396,-0.4571428571428569
3.4,-0.5199999999999934
3.404,-0.6399999999999932
3.408,-0.6825000000000019
3.412,-0.647500000000002
3.416,-0.6549999999999973
3.42,-0.7049999999999972
3.424,-0.7449999999999983
3.428,-0.7749999999999984
3.432,-0.7999999999999989
3.436,-0.8199999999999988
3.44,-0.8042857142857159
3.444,-0.752857142857142
3.448,-0.6912499999999981
3.452,-0.6262499999999982
3.456,-0.6587500000000018
3.46,-0.7237500000000018
3.464,-0.7174999999999991
3.468,-0.6874999999999992
3.472,-0.6312499999999982
3.476,-0.5662499999999983
3.48,-0.5285714285714281
3.484,-0.5
3.488,-0.5549999999999999
3.492,-0.61
3.496,-0.5700000000000001
3.5,-0.53
3.504,-0.5700000000000001
3.508,-0.61
3.512,-0.605
3.516,-0.6
3.52,-0.554285714285715
3.524,-0.5162500000000004
3.528,-0.5012500000000004
3.532,-0.4837500000000007
3.536,-0.4587500000000007
3.54,-0.4624999999999975
3.544,-0.5524999999999975
3.548,-0.6025000000000019
3.552,-0.532500000000002
3.556,-0.4671428571428579
3.56,-0.4157142857142841
3.564,-0.372499999999998
3.568,-0.3374999999999981
3.572,-0.3300000000000011
3.576,-0.3500000000000011
3.58,-0.3474999999999986
3.584,-0.3224999999999986
3.588,-0.2624999999999947
