time,signal
0.0,-0.29
0.004,-0.295
0.008,-0.3
0.012,-0.6199999999999999
0.016,-0.94
0.02,-0.94
0.024,-0.8606249999999999
0.028,-0.5431249999999999
0.032,-0.2256249999999999
0.036000000000000004,0.09187500000000086
0.04,0.4093750000000001
0.044,0.7268749999999998
0.048,0.911875
0.052000000000000005,0.6993749999999993
0.056,0.4485714285714285
0.06,0.082857142857143
0.064,-0.26
0.068,-0.58
0.07200000000000001,-0.9000000000000014
0.076,-1.2199999999999998
0.08,-1.39
0.084,-1.41
0.088,-1.465
0.092,-1.5550000000000002
0.096,-1.555
0.1,-1.465
0.10400000000000001,-1.3628571428571419
0.108,-1.2485714285714284
0.112,-1.09625
0.116,-0.93125
0.12,-0.7662500000000004
0.124,-0.6012500000000001
0.128,-0.48875
0.132,-0.39375
0.136,-0.3174999999999998
0.14,-0.2474999999999995
0.14400000000000002,-0.22142857142857122
0.148,-0.21
0.152,-0.205
0.156,-0.2
0.16,-0.18
0.164,-0.16
0.168,-0.1499999999999999
0.17200000000000001,-0.13999999999999962
0.176,-0.115
0.18,-0.09
0.184,-0.09
0.188,-0.09
0.192,-0.0671428571428571
0.196,-0.05
0.2,-0.05
0.20400000000000001,-0.04874999999999997
0.20800000000000002,-0.04374999999999983
0.212,-0.03375
0.216,-0.00875
0.22,0.01
0.224,0.01
0.228,0.0157142857142857
0.232,0.0385714285714285
0.23600000000000002,0.06250000000000017
0.24,0.0874999999999999
0.244,0.11
0.248,0.13
0.252,0.155
0.256,0.185
0.26,0.2175
0.264,0.2525
0.268,0.2928571428571428
0.272,0.3385714285714285
0.276,0.3575
0.28,0.3675
0.28400000000000003,0.3962500000000006
0.28800000000000003,0.43125000000000113
0.292,0.485
0.296,0.545
0.3,0.56
0.304,0.56
0.308,0.5771428571428572
0.312,0.6
0.316,0.605
0.32,0.61
0.324,0.55
0.328,0.49
0.332,0.43
0.336,0.37
0.34,0.2999999999999995
0.34400000000000003,0.22999999999999804
0.34800000000000003,0.15999999999999803
0.352,0.09
0.356,0.0385714285714285
0.36,-0.00625
0.364,-0.03125
0.368,-0.05875
0.372,-0.09375
0.376,-0.12625
0.38,-0.15125
0.384,-0.175
0.388,-0.195
0.392,-0.2128571428571428
0.396,-0.2242857142857142
0.4,-0.2325
0.404,-0.2375
0.40800000000000003,-0.24
0.41200000000000003,-0.23999999999999996
0.41600000000000004,-0.23749999999999985
0.42,-0.2325
0.424,-0.2375
0.428,-0.2525
0.432,-0.2625
0.436,-0.2675
0.44,-0.2642857142857143
0.444,-0.2528571428571428
0.448,-0.2575
0.452,-0.2675
0.456,-0.28125
0.46,-0.29625
0.464,-0.2924999999999999
0.468,-0.2824999999999999
0.47200000000000003,-0.28
0.47600000000000003,-0.27999999999999975
0.48,-0.2585714285714285
0.484,-0.23
0.488,-0.24
0.492,-0.25
0.496,-0.245
0.5,-0.24
0.504,-0.25
0.508,-0.26
0.512,-0.235
0.516,-0.21
0.52,-0.2328571428571428
0.524,-0.245
0.528,-0.225
0.532,-0.2075
0.536,-0.1975
0.54,-0.19125
0.544,-0.19625
0.548,-0.20125
0.552,-0.20625
0.556,-0.2071428571428571
0.56,-0.1957142857142857
0.5640000000000001,-0.1774999999999998
0.5680000000000001,-0.1524999999999995
0.5720000000000001,-0.1550000000000008
0.5760000000000001,-0.1850000000000008
0.58,-0.2075
0.584,-0.2225
0.588,-0.2075
0.592,-0.1625
0.596,-0.1375
0.6,-0.1325
0.604,-0.1471428571428571
0.608,-0.1814285714285714
0.612,-0.17875
0.616,-0.16375
0.62,-0.1675
0.624,-0.1775
0.628,-0.17625
0.632,-0.17125
0.636,-0.1625
0.64,-0.1525
0.644,-0.1542857142857142
0.648,-0.16
0.652,-0.175
0.656,-0.19
0.66,-0.15
0.664,-0.11
0.668,-0.125
0.672,-0.14
0.676,-0.145
0.68,-0.15
0.684,-0.1449999999999999
0.6880000000000001,-0.1399999999999995
0.6920000000000001,-0.1228571428571423
0.6960000000000001,-0.1162500000000007
0.7000000000000001,-0.1412500000000007
0.704,-0.16
0.708,-0.16
0.712,-0.15
0.716,-0.11
0.72,-0.08625
0.724,-0.11125
0.728,-0.1314285714285714
0.732,-0.1371428571428571
0.736,-0.14
0.74,-0.14
0.744,-0.14
0.748,-0.14
0.752,-0.13
0.756,-0.11
0.76,-0.105
0.764,-0.1149999999999999
0.768,-0.1142857142857142
0.772,-0.1028571428571428
0.776,-0.1
0.78,-0.1
0.784,-0.1
0.788,-0.1
0.792,-0.10375
0.796,-0.10875
0.8,-0.1025
0.804,-0.0925
0.808,-0.1071428571428571
0.812,-0.13
0.8160000000000001,-0.1099999999999997
0.8200000000000001,-0.0899999999999987
0.8240000000000001,-0.0449999999999987
0.8280000000000001,2.775557561562889e-16
0.8320000000000001,0.0100000000000002
0.836,0.02
0.84,-0.015
0.844,-0.05
0.848,-0.04
0.852,-0.03
0.856,0.01
0.86,0.03375
0.864,0.00875
0.868,-0.01
0.872,-0.01
0.876,-0.0175
0.88,-0.0475
0.884,-0.07125
0.888,-0.07625
0.892,-0.0885714285714285
0.896,-0.1228571428571428
0.9,-0.115
0.904,-0.065
0.908,-0.0575
0.912,-0.0925
0.916,-0.1075
0.92,-0.1025
0.924,-0.095
0.928,-0.085
0.932,-0.0950000000000002
0.936,-0.1250000000000006
0.9400000000000001,-0.12571428571428409
0.9440000000000001,-0.0971428571428564
0.9480000000000001,-0.10125000000000081
0.9520000000000001,-0.1162500000000004
0.9560000000000001,-0.11624999999999966
0.96,-0.11125
0.964,-0.2525
0.968,-0.4425
0.972,-0.6025
0.976,-0.7525
0.98,-0.52
0.984,-0.16
0.988,0.1575
0.992,0.475
0.996,0.7925
1.0,1.11
1.004,1.26
1.008,1.41
1.012,1.09
1.016,0.77
1.02,0.4042857142857085
1.024,0.0499999999999911
1.028,-0.2700000000000089
1.032,-0.5900000000000089
1.036,-0.9100000000000088
1.04,-1.1662500000000018
1.044,-1.2312500000000015
1.048,-1.2950000000000017
1.052,-1.3550000000000015
1.056,-1.3685714285714254
1.06,-1.2428571428571418
1.064,-1.1324999999999998
1.068,-1.0375
1.072,-0.9125
1.076,-0.7575000000000001
1.08,-0.605
1.084,-0.455
1.088,-0.32
1.092,-0.2
1.096,-0.12
1.1,-0.08
1.104,-0.0571428571428571
1.108,-0.0514285714285712
1.112,-0.0199999999999988
1.116,0.0200000000000011
1.12,0.0412500000000004
1.124,0.0562500000000004
1.1280000000000001,0.06750000000000075
1.1320000000000001,0.07750000000000075
1.1360000000000001,0.08750000000000076
1.1400000000000001,0.09750000000000153
1.1440000000000001,0.12142857142857408
1.1480000000000001,0.14999999999999886
1.1520000000000001,0.13999999999999885
1.156,0.13
1.16,0.16
1.164,0.19
1.168,0.195
1.172,0.2
1.176,0.23
1.18,0.26
1.184,0.275
1.188,0.29
1.192,0.3242857142857137
1.196,0.3562499999999993
1.2,0.3812499999999993
1.204,0.4049999999999994
1.208,0.4249999999999994
1.212,0.4462499999999993
1.216,0.4712499999999993
1.22,0.5087499999999979
1.224,0.5837499999999979
1.228,0.6428571428571426
1.232,0.6542857142857142
1.236,0.6825
1.24,0.7275
1.244,0.775
1.248,0.825
1.252,0.855
1.256,0.865
1.26,0.885
1.264,0.915
1.268,0.9442857142857144
1.272,0.9728571428571436
1.276,0.931249999999998
1.28,0.8662499999999982
1.284,0.8162499999999987
1.288,0.7712499999999988
1.292,0.707499999999998
1.296,0.6374999999999981
1.3,0.5524999999999975
1.304,0.4624999999999974
1.308,0.3757142857142843
1.312,0.29
1.316,0.235
1.32,0.18
1.324,0.155
1.328,0.13
1.332,0.09
1.336,0.05
1.34,0.04
1.344,0.03
1.348,0.015
1.352,0.0
1.356,0.0
1.36,-0.0037500000000004
1.364,-0.0187500000000004
1.368,-0.0312500000000001
1.372,-0.0362500000000001
1.3760000000000001,-0.04375000000000123
1.3800000000000001,-0.058750000000000954
1.3840000000000001,-0.06874999999999952
1.3880000000000001,-0.06374999999999952
1.3920000000000001,-0.05857142857142798
1.3960000000000001,-0.05285714285714248
1.4000000000000001,-0.05250000000000048
1.4040000000000001,-0.0575000000000002
1.408,-0.0574999999999999
1.412,-0.0525
1.416,-0.0575
1.42,-0.0725
1.424,-0.0725
1.428,-0.0575
1.432,-0.055
1.436,-0.065
1.44,-0.0671428571428572
1.444,-0.0614285714285715
1.448,-0.0562500000000001
1.452,-0.0512500000000001
1.456,-0.0425000000000002
1.46,-0.0325000000000002
1.464,-0.0337499999999998
1.468,-0.0387499999999998
1.472,-0.04
1.476,-0.04
1.48,-0.0314285714285716
1.484,-0.02
1.488,-0.02
1.492,-0.02
1.496,-0.015
1.5,-0.01
1.504,0.0
1.508,0.01
1.512,-0.015
1.516,-0.04
1.52,-0.0228571428571425
1.524,-0.0125000000000002
1.528,-0.0225000000000002
1.532,-0.0325000000000002
1.536,-0.0425000000000002
1.54,-0.0437499999999993
1.544,-0.0187499999999993
1.548,-0.0062500000000006
1.552,-0.0312500000000006
1.556,-0.0514285714285715
1.56,-0.0571428571428571
1.564,-0.0574999999999999
1.568,-0.0525
1.572,-0.0475
1.576,-0.0425
1.58,-0.0575
1.584,-0.0925
1.588,-0.105
1.592,-0.095
1.596,-0.0824999999999999
1.6,-0.0675
1.604,-0.0714285714285716
1.608,-0.0942857142857148
1.612,-0.0962499999999998
1.616,-0.0912499999999998
1.62,-0.09
1.624,-0.09
1.6280000000000001,-0.1050000000000016
1.6320000000000001,-0.12500000000000056
1.6360000000000001,-0.12624999999999953
1.6400000000000001,-0.12124999999999973
1.6440000000000001,-0.12
1.6480000000000001,-0.12000000000000163
1.6520000000000001,-0.13500000000000165
1.6560000000000001,-0.15000000000000105
1.6600000000000001,-0.16000000000000106
1.6640000000000001,-0.16999999999999826
1.668,-0.155
1.672,-0.14
1.676,-0.14
1.68,-0.14
1.684,-0.145
1.688,-0.15
1.692,-0.15
1.696,-0.1487500000000001
1.7,-0.1437500000000001
1.704,-0.14
1.708,-0.14
1.712,-0.1387500000000001
1.716,-0.1337500000000001
1.72,-0.1275000000000002
1.724,-0.1175000000000002
1.728,-0.1114285714285713
1.732,-0.117142857142857
1.736,-0.1175
1.74,-0.1125
1.744,-0.115
1.748,-0.125
1.752,-0.1225
1.756,-0.1075
1.76,-0.0975
1.764,-0.0925
1.768,-0.0842857142857142
1.772,-0.0728571428571425
1.776,-0.0549999999999994
1.78,-0.0349999999999994
1.784,0.0075000000000013
1.788,0.0575000000000014
1.792,0.0662499999999998
1.796,0.0612499999999998
1.8,0.0412499999999993
1.804,0.0162499999999993
1.808,-0.0114285714285718
1.812,-0.04
1.816,0.015
1.82,0.07
1.824,0.045
1.828,0.02
1.832,-0.0099999999999999
1.836,-0.04
1.84,-0.06
1.844,-0.08
1.848,-0.07
1.852,-0.06
1.856,-0.0714285714285716
1.86,-0.0837500000000004
1.864,-0.0987500000000004
1.868,-0.1062499999999995
1.872,-0.0912499999999995
1.8760000000000001,-0.08250000000000075
1.8800000000000001,-0.09250000000000061
1.8840000000000001,-0.1
1.8880000000000001,-0.09999999999999992
1.8920000000000001,-0.09857142857142807
1.8960000000000001,-0.09285714285714262
1.9000000000000001,-0.09500000000000106
1.9040000000000001,-0.10500000000000063
1.9080000000000001,-0.10749999999999943
1.9120000000000001,-0.10250000000000775
1.9160000000000001,-0.24750000000003267
1.92,-0.5425
1.924,-0.725
1.928,-0.7949999999999999
1.932,-0.6712499999999999
1.936,-0.3537499999999999
1.94,-0.0135714285714314
1.944,0.3492857142857057
1.948,0.6781249999999912
1.952,0.9956249999999912
1.956,1.2568749999999933
1.96,1.4993749999999932
1.964,1.320000000000009
1.968,1.0000000000000089
1.972,0.6800000000000089
1.976,0.3600000000000088
1.98,0.0057142857142915
1.984,-0.36
1.988,-0.6799999999999999
1.992,-1.0
1.996,-1.215
2.0,-1.43
2.004,-1.4
2.008,-1.37
2.012,-1.295
2.016,-1.22
2.02,-0.991428571428575
2.024,-0.7912500000000031
2.028,-0.6762500000000031
2.032,-0.5512500000000042
2.036,-0.3962500000000043
2.04,-0.2612500000000021
2.044,-0.186250000000002
2.048,-0.1237500000000006
2.052,-0.0987500000000007
2.056,-0.0771428571428573
2.06,-0.0657142857142853
2.064,-0.0524999999999991
2.068,-0.0374999999999991
2.072,-0.0224999999999991
2.076,-0.0074999999999991
2.08,0.0
2.084,0.0
2.088,0.0075000000000008
2.092,0.0225000000000008
2.096,0.0425000000000013
2.1,0.0675000000000013
2.104,0.0857142857142862
2.108,0.0971428571428575
2.112,0.1037500000000001
2.116,0.1087500000000001
2.12,0.1287500000000007
2.124,0.1537500000000007
2.128,0.1675000000000003
2.132,0.1775000000000002
2.136,0.1950000000000005
2.14,0.2150000000000005
2.144,0.2328571428571431
2.148,0.25
2.152,0.265
2.156,0.28
2.16,0.315
2.164,0.35
2.168,0.405
2.172,0.46
2.176,0.48
2.18,0.5
2.184,0.5349999999999999
2.188,0.57
2.192,0.6157142857142879
2.196,0.6587500000000029
2.2,0.6937500000000029
2.204,0.7237500000000012
2.208,0.7387500000000012
2.212,0.7537500000000013
2.216,0.7687500000000013
2.22,0.7812500000000004
2.224,0.7862500000000004
2.228,0.7842857142857125
2.232,0.76142857142857
2.236,0.704999999999995
2.24,0.614999999999995
2.244,0.534999999999996
2.248,0.4649999999999961
2.2520000000000002,0.38249999999998413
2.2560000000000002,0.2874999999999858
2.2600000000000002,0.20749999999998908
2.2640000000000002,0.14249999999999047
2.2680000000000002,0.08999999999999365
2.2720000000000002,0.049999999999994674
2.2760000000000002,0.013749999999995113
2.2800000000000002,-0.021250000000003953
2.2840000000000003,-0.0487500000000006
2.2880000000000003,-0.0737500000000007
2.2920000000000003,-0.0875000000000002
2.2960000000000003,-0.0975000000000002
2.3000000000000003,-0.1112500000000004
2.3040000000000003,-0.1262500000000004
2.308,-0.1214285714285719
2.312,-0.11
2.316,-0.125
2.32,-0.14
2.324,-0.14
2.328,-0.14
2.332,-0.155
2.336,-0.17
2.34,-0.17
2.344,-0.17
2.348,-0.16
2.352,-0.15
2.356,-0.1614285714285712
2.36,-0.1687500000000001
2.364,-0.1637500000000001
2.368,-0.1587500000000001
2.372,-0.1537500000000001
2.376,-0.1512499999999998
2.38,-0.1562499999999998
2.384,-0.16
2.388,-0.16
2.392,-0.1571428571428575
2.396,-0.1457142857142862
2.4,-0.1424999999999997
2.404,-0.1474999999999997
2.408,-0.1475000000000002
2.412,-0.1425000000000003
2.416,-0.1375000000000003
2.42,-0.1325000000000002
2.424,-0.1349999999999994
2.428,-0.1449999999999994
2.432,-0.1475000000000002
2.436,-0.1425000000000003
2.44,-0.1371428571428573
2.444,-0.1314285714285713
2.448,-0.1224999999999997
2.452,-0.1124999999999997
2.456,-0.1212500000000004
2.46,-0.1362500000000004
2.464,-0.1362499999999998
2.468,-0.1312499999999998
2.472,-0.1224999999999997
2.476,-0.1124999999999997
2.48,-0.1142857142857143
2.484,-0.12
2.488,-0.135
2.492,-0.15
2.496,-0.11
2.5,-0.07
2.504,-0.095
2.508,-0.12
2.512,-0.12
2.516,-0.12
2.52,-0.1142857142857143
2.524,-0.1112499999999998
2.528,-0.1162499999999998
2.532,-0.12
2.536,-0.12
2.54,-0.1187500000000001
2.544,-0.1137500000000001
2.548,-0.11
2.552,-0.11
2.556,-0.1114285714285713
2.56,-0.1171428571428573
2.564,-0.12
2.568,-0.12
2.572,-0.1174999999999997
2.576,-0.1124999999999997
2.58,-0.11
2.584,-0.11
2.588,-0.1150000000000005
2.592,-0.1250000000000005
2.596,-0.1249999999999994
2.6,-0.1149999999999994
2.604,-0.1157142857142862
2.608,-0.1271428571428575
2.612,-0.13
2.616,-0.13
2.62,-0.1262499999999998
2.624,-0.1212499999999998
2.628,-0.1350000000000005
2.632,-0.1550000000000005
2.636,-0.1299999999999989
2.64,-0.0899999999999988
2.644,-0.0885714285714287
2.648,-0.1
2.652,-0.115
2.656,-0.13
2.66,-0.135
2.664,-0.14
2.668,-0.135
2.672,-0.13
2.676,-0.13
2.68,-0.13
2.684,-0.14
2.688,-0.15
2.692,-0.138571428571428
2.696,-0.1312500000000004
2.7,-0.1362500000000004
2.704,-0.1425000000000008
2.708,-0.1525000000000008
2.712,-0.1574999999999991
2.716,-0.1474999999999992
2.72,-0.1312499999999971
2.724,-0.096249999999997
2.728,-0.0628571428571406
2.732,-0.0342857142857124
2.736,-0.0174999999999997
2.74,-0.0124999999999997
2.744,-0.0300000000000022
2.748,-0.0700000000000022
2.7520000000000002,-0.08249999999999744
2.7560000000000002,-0.06749999999999799
2.7600000000000002,-0.05749999999999914
2.7640000000000002,-0.05249999999999879
2.7680000000000002,-0.04428571428571243
2.7720000000000002,-0.032857142857143744
2.7760000000000002,-0.04500000000000272
2.7800000000000002,-0.06500000000000397
2.7840000000000003,-0.0962500000000009
2.7880000000000003,-0.1312500000000009
2.7920000000000003,-0.1437500000000001
2.7960000000000003,-0.1487500000000001
2.8000000000000003,-0.1462499999999998
2.8040000000000003,-0.1412499999999998
2.8080000000000003,-0.1700000000000025
2.8120000000000003,-0.2099999999999961
2.816,-0.175
2.82,-0.14
2.824,-0.155
2.828,-0.17
2.832,-0.17
2.836,-0.17
2.84,-0.18
2.844,-0.19
2.848,-0.185
2.852,-0.18
2.856,-0.1914285714285712
2.86,-0.2799999999999911
2.864,-0.599999999999991
2.868,-0.8499999999999989
2.872,-0.8899999999999989
2.876,-0.8406250000000088
2.88,-0.5231250000000088
2.884,-0.2056250000000087
2.888,0.1118749999999912
2.892,0.4407142857142742
2.896,0.8035714285714113
2.9,1.0087499999999974
2.904,1.0562499999999977
2.908,0.9200000000000178
2.912,0.6000000000000177
2.916,0.2800000000000178
2.92,-0.0399999999999822
2.924,-0.3599999999999822
2.928,-0.6799999999999822
2.932,-0.9724999999999852
2.936,-1.2374999999999854
2.94,-1.4214285714285682
2.944,-1.524285714285716
2.948,-1.4787499999999971
2.952,-1.3837499999999974
2.956,-1.2887499999999974
2.96,-1.1937499999999974
2.964,-1.0387499999999952
2.968,-0.8637499999999951
2.972,-0.7074999999999958
2.976,-0.5574999999999959
2.98,-0.417142857142855
2.984,-0.28
2.988,-0.24
2.992,-0.2
2.996,-0.18
3.0,-0.16
3.004,-0.14
3.008,-0.12
3.012,-0.1149999999999999
3.016,-0.11
3.02,-0.0985714285714287
3.024,-0.0862500000000004
3.028,-0.0712500000000004
3.032,-0.0612499999999998
3.036,-0.0662499999999998
3.04,-0.0675000000000002
3.044,-0.0575000000000002
3.048,-0.0425000000000008
3.052,-0.0125000000000008
3.056,0.0071428571428573
3.06,-0.0042857142857146
3.064,-0.0024999999999991
3.068,0.0125000000000008
3.072,0.0325000000000013
3.076,0.0575000000000013
3.08,0.0750000000000005
3.084,0.0850000000000005
3.088,0.0975000000000008
3.092,0.1125000000000008
3.096,0.1350000000000016
3.1,0.1650000000000016
3.104,0.1885714285714294
3.108,0.2057142857142862
3.112,0.2512500000000015
3.116,0.3062500000000015
3.12,0.346250000000001
3.124,0.381250000000001
3.128,0.4237500000000012
3.132,0.4687500000000012
3.136,0.4950000000000005
3.14,0.5150000000000006
3.144,0.554285714285715
3.148,0.6
3.152,0.63
3.156,0.66
3.16,0.67
3.164,0.68
3.168,0.68
3.172,0.68
3.176,0.655
3.18,0.63
3.184,0.545
3.188,0.46
3.192,0.3685714285714242
3.196,0.2812499999999937
3.2,0.2062499999999937
3.204,0.134999999999995
3.208,0.074999999999995
3.212,0.021249999999997
3.216,-0.0137500000000029
3.22,-0.0500000000000033
3.224,-0.0900000000000033
3.228,-0.1257142857142875
3.232,-0.14857142857143
3.236,-0.1675000000000008
3.24,-0.1825000000000008
3.244,-0.1975000000000008
3.248,-0.2125000000000008
3.2520000000000002,-0.21249999999999744
3.2560000000000002,-0.1974999999999991
3.2600000000000002,-0.19750000000000248
3.2640000000000002,-0.21250000000000194
3.2680000000000002,-0.22285714285714373
3.2720000000000002,-0.22857142857142804
3.2760000000000002,-0.2224999999999986
3.2800000000000002,-0.21250000000000066
3.2840000000000003,-0.2212500000000004
3.2880000000000003,-0.2362500000000004
3.2920000000000003,-0.2362499999999998
3.2960000000000003,-0.2312499999999998
3.3000000000000003,-0.2224999999999997
3.3040000000000003,-0.2124999999999997
3.3080000000000003,-0.2271428571428586
3.3120000000000003,-0.25
3.3160000000000003,-0.25
3.3200000000000003,-0.2499999999999989
3.3240000000000003,-0.2399999999999988
3.3280000000000003,-0.2300000000000005
3.332,-0.235
3.336,-0.24
3.34,-0.26
3.344,-0.28
3.348,-0.255
3.352,-0.23
3.356,-0.2357142857142856
3.36,-0.2412499999999998
3.364,-0.2462499999999998
3.368,-0.2512499999999998
3.372,-0.2562499999999998
3.376,-0.2550000000000005
3.38,-0.2350000000000005
3.384,-0.2212499999999998
3.388,-0.2262499999999998
3.392,-0.23
3.396,-0.23
3.4,-0.23
3.404,-0.23
3.408,-0.2175000000000014
3.412,-0.1925000000000014
3.416,-0.1899999999999989
3.42,-0.2099999999999988
3.424,-0.2100000000000011
3.428,-0.1900000000000011
3.432,-0.1849999999999994
3.436,-0.1949999999999994
3.44,-0.2028571428571426
3.444,-0.2085714285714286
3.448,-0.2024999999999997
3.452,-0.1924999999999997
3.456,-0.1937500000000001
3.46,-0.1987500000000001
3.464,-0.2037500000000001
3.468,-0.2087500000000001
3.472,-0.2137500000000001
3.476,-0.2187500000000001
3.48,-0.2157142857142856
3.484,-0.21
3.488,-0.215
3.492,-0.22
3.496,-0.22
3.5,-0.22
3.504,-0.21
3.508,-0.2
3.512,-0.22
3.516,-0.24
3.52,-0.2342857142857143
3.524,-0.23
3.528,-0.23
3.532,-0.2287500000000001
3.536,-0.2237500000000001
3.54,-0.2137500000000007
3.544,-0.1887500000000007
3.548,-0.1749999999999994
3.552,-0.1949999999999994
3.556,-0.2085714285714286
3.56,-0.2028571428571426
3.564,-0.2025000000000003
3.568,-0.2075000000000002
3.572,-0.21
3.576,-0.21
3.58,-0.2074999999999997
3.584,-0.2024999999999997
3.588,-0.2050000000000005
3.592,-0.2150000000000005
3.596,-0.2174999999999997
3.6,-0.2124999999999997
3.604,-0.2042857142857137
3.608,-0.1928571428571425
3.612,-0.2012500000000004
3.616,-0.2162500000000004
3.62,-0.2162499999999998
3.624,-0.2112499999999998
3.628,-0.2062499999999998
3.632,-0.2012499999999998
3.636,-0.2150000000000005
3.64,-0.2350000000000005
3.644,-0.2314285714285712
3.648,-0.22
3.652,-0.2299999999999999
3.656,-0.24
3.66,-0.2
3.664,-0.16
3.668,-0.16
3.672,-0.16
3.676,-0.12
3.68,-0.08
3.684,-0.0849999999999999
3.688,-0.09
