time,signal
0.0,-0.075
0.004,-0.08499999999999999
0.008,-0.095
0.012,-0.1
0.016,-0.105
0.02,-0.10214285714285715
0.024,-0.100625
0.028,-0.103125
0.032,-0.10625
0.036000000000000004,-0.11125
0.04,-0.115625
0.044,-0.118125
0.048,-0.12125
0.052000000000000005,-0.12625
0.056,-0.13
0.06,-0.13
0.064,-0.135
0.068,-0.145
0.07200000000000001,-0.1525
0.076,-0.1575
0.08,-0.1625
0.084,-0.1675
0.088,-0.17250000000000001
0.092,-0.1775
0.096,-0.18
0.1,-0.18
0.10400000000000001,-0.18142857142857144
0.108,-0.18428571428571427
0.112,-0.190625
0.116,-0.198125
0.12,-0.201875
0.124,-0.204375
0.128,-0.199375
0.132,-0.191875
0.136,-0.18625
0.14,-0.18124999999999997
0.14400000000000002,-0.17571428571428568
0.148,-0.17
0.152,-0.1625
0.156,-0.155
0.16,-0.135
0.164,-0.115
0.168,-0.10249999999999995
0.17200000000000001,-0.09
0.176,-0.09
0.18,-0.09
0.184,-0.1075
0.188,-0.125
0.192,-0.14214285714285715
0.196,-0.156875
0.2,-0.164375
0.20400000000000001,-0.166875
0.20800000000000002,-0.15437499999999996
0.212,-0.138125
0.216,-0.110625
0.22,-0.0925
0.224,-0.1025
0.228,-0.12071428571428572
0.232,-0.16357142857142856
0.23600000000000002,-0.19375000000000003
0.24,-0.21124999999999997
0.244,-0.225
0.248,-0.235
0.252,-0.23625
0.256,-0.22875
0.26,-0.22375
0.264,-0.22125
0.268,-0.22285714285714286
0.272,-0.2285714285714286
0.276,-0.22812500000000002
0.28,-0.22562500000000002
0.28400000000000003,-0.22687500000000002
0.28800000000000003,-0.22937500000000005
0.292,-0.22812500000000002
0.296,-0.22562500000000002
0.3,-0.226875
0.304,-0.229375
0.308,-0.2342857142857143
0.312,-0.24
0.316,-0.24
0.32,-0.24
0.324,-0.2425
0.328,-0.245
0.332,-0.22
0.336,-0.195
0.34,-0.13749999999999962
0.34400000000000003,-0.0800000000000001
0.34800000000000003,-0.0875000000000001
0.352,-0.095
0.356,-0.21785714285714286
0.36,-0.36
0.364,-0.5599999999999999
0.368,-0.755625
0.372,-0.938125
0.376,-1.098125
0.38,-1.190625
0.384,-1.263125
0.388,-1.275625
0.392,-1.285
0.396,-1.285
0.4,-1.2725
0.404,-1.2475
0.40800000000000003,-1.22
0.41200000000000003,-1.1899999999999997
0.41600000000000004,-1.1487499999999993
0.42,-1.09625
0.424,-1.02625
0.428,-0.93875
0.432,-0.8475
0.436,-0.7525
0.44,-0.6478571428571428
0.444,-0.5335714285714286
0.448,-0.46187500000000004
0.452,-0.40437500000000004
0.456,-0.34125
0.46,-0.27625
0.464,-0.22062499999999974
0.468,-0.16812499999999936
0.47200000000000003,-0.12499999999999944
0.47600000000000003,-0.08499999999999944
0.48,-0.05357142857142857
0.484,-0.025
0.488,-0.0125
0.492,0.0
0.496,0.0075
0.5,0.015
0.504,0.0225
0.508,0.03
0.512,0.0475
0.516,0.065
0.52,0.06785714285714287
0.524,0.07375000000000001
0.528,0.08875000000000001
0.532,0.10250000000000001
0.536,0.1125
0.54,0.12125
0.544,0.12625
0.548,0.135
0.552,0.155
0.556,0.17214285714285715
0.56,0.18071428571428572
0.5640000000000001,0.1912500000000001
0.5680000000000001,0.20375000000000026
0.5720000000000001,0.21125000000000005
0.5760000000000001,0.21375000000000005
0.58,0.21875
0.584,0.22625
0.588,0.23500000000000001
0.592,0.245
0.596,0.2525
0.6,0.2575
0.604,0.26571428571428574
0.608,0.2771428571428572
0.612,0.281875
0.616,0.284375
0.62,0.28874999999999995
0.624,0.29374999999999996
0.628,0.29125
0.632,0.28625
0.636,0.29062499999999997
0.64,0.298125
0.644,0.2914285714285714
0.648,0.28
0.652,0.28250000000000003
0.656,0.285
0.66,0.27
0.664,0.255
0.668,0.26
0.672,0.265
0.676,0.2525
0.68,0.24
0.684,0.23749999999999996
0.6880000000000001,0.23499999999999951
0.6920000000000001,0.21785714285714236
0.6960000000000001,0.20562500000000006
0.7000000000000001,0.20812500000000006
0.704,0.206875
0.708,0.194375
0.712,0.18125
0.716,0.16625
0.72,0.149375
0.724,0.12687500000000002
0.728,0.10785714285714286
0.732,0.09928571428571428
0.736,0.08875
0.74,0.07625000000000001
0.744,0.065
0.748,0.05500000000000001
0.752,0.043750000000000004
0.756,0.03125
0.76,0.027500000000000004
0.764,0.0325
0.768,0.025
0.772,0.0049999999999999975
0.776,-0.001875
0.78,-0.004375
0.784,-0.0125
0.788,-0.022500000000000003
0.792,-0.030625
0.796,-0.038125
0.8,-0.041875
0.804,-0.044375
0.808,-0.05142857142857143
0.812,-0.06
0.8160000000000001,-0.06500000000000007
0.8200000000000001,-0.06999999999999987
0.8240000000000001,-0.06499999999999986
0.8280000000000001,-0.06000000000000055
0.8320000000000001,-0.08000000000000056
0.836,-0.1
0.84,-0.10500000000000001
0.844,-0.11
0.848,-0.1175
0.852,-0.125
0.856,-0.125
0.86,-0.12687500000000002
0.864,-0.13437500000000002
0.868,-0.140625
0.872,-0.143125
0.876,-0.1475
0.88,-0.1575
0.884,-0.164375
0.888,-0.161875
0.892,-0.16071428571428573
0.896,-0.1635714285714286
0.9,-0.17
0.904,-0.18
0.908,-0.1875
0.912,-0.1925
0.916,-0.195
0.92,-0.195
0.924,-0.19125
0.928,-0.18375
0.932,-0.17874999999999996
0.936,-0.17624999999999993
0.9400000000000001,-0.175
0.9440000000000001,-0.175
0.9480000000000001,-0.17687500000000006
0.9520000000000001,-0.17937500000000006
0.9560000000000001,-0.17062499999999964
0.96,-0.158125
0.964,-0.130625
0.968,-0.09812499999999999
0.972,-0.0825
0.976,-0.07250000000000001
0.98,-0.07857142857142857
0.984,-0.09
0.988,-0.115
0.992,-0.14
0.996,-0.14
1.0,-0.14
1.004,-0.14250000000000002
1.008,-0.145
1.012,-0.145
1.016,-0.145
1.02,-0.10499999999999936
1.024,-0.07687500000000021
1.028,-0.0843750000000002
1.032,-0.09687500000000077
1.036,-0.12437500000000076
1.04,-0.15000000000000055
1.044,-0.17000000000000054
1.048,-0.1893750000000005
1.052,-0.20687500000000048
1.056,-0.22071428571428578
1.06,-0.2235714285714286
1.064,-0.22
1.068,-0.21
1.072,-0.20875
1.076,-0.21625
1.08,-0.22
1.084,-0.22
1.088,-0.21875
1.092,-0.21625
1.096,-0.2175
1.1,-0.2225
1.104,-0.225
1.108,-0.225
1.112,-0.2193749999999998
1.116,-0.21187499999999979
1.12,-0.2156250000000002
1.124,-0.2231250000000002
1.1280000000000001,-0.21749999999999972
1.1320000000000001,-0.2074999999999997
1.1360000000000001,-0.1974999999999997
1.1400000000000001,-0.18749999999999972
1.1440000000000001,-0.14642857142856938
1.1480000000000001,-0.09499999999999792
1.1520000000000001,-0.05749999999999792
1.156,-0.02
1.16,-0.125
1.164,-0.23
1.168,-0.40249999999999997
1.172,-0.575
1.176,-0.7999999999999999
1.18,-1.025
1.184,-1.1549999999999998
1.188,-1.285
1.192,-1.3392857142857133
1.196,-1.3743750000000006
1.2,-1.3518750000000006
1.204,-1.3300000000000005
1.208,-1.3100000000000005
1.212,-1.2887500000000007
1.216,-1.2637500000000008
1.22,-1.236250000000001
1.224,-1.201250000000001
1.228,-1.145000000000003
1.232,-1.025000000000001
1.236,-0.9199999999999999
1.24,-0.8300000000000001
1.244,-0.7325
1.248,-0.6275
1.252,-0.53625
1.256,-0.45875
1.26,-0.39125
1.264,-0.33375
1.268,-0.2735714285714281
1.272,-0.21071428571428422
1.276,-0.16312499999999883
1.28,-0.12062499999999882
1.284,-0.08187499999999896
1.288,-0.04437499999999896
1.292,-0.031249999999999865
1.296,-0.026249999999999864
1.3,-0.015624999999999655
1.304,-0.0031249999999996524
1.308,-0.002142857142857188
1.312,-0.005
1.316,0.012499999999999997
1.32,0.03
1.324,0.0475
1.328,0.065
1.332,0.0675
1.336,0.07
1.34,0.0825
1.344,0.095
1.348,0.1125
1.352,0.13
1.356,0.1385714285714287
1.36,0.14750000000000027
1.364,0.15750000000000028
1.368,0.16875000000000043
1.372,0.1837500000000004
1.3760000000000001,0.19437499999999994
1.3800000000000001,0.19187499999999993
1.3840000000000001,0.19375000000000042
1.3880000000000001,0.2087500000000004
1.3920000000000001,0.2192857142857142
1.3960000000000001,0.2164285714285713
1.4000000000000001,0.22250000000000084
1.4040000000000001,0.23750000000000082
1.408,0.24875
1.412,0.25625
1.416,0.265
1.42,0.275
1.424,0.27625
1.428,0.26875000000000004
1.432,0.26875000000000004
1.436,0.27625
1.44,0.2757142857142858
1.444,0.26714285714285735
1.448,0.2687499999999999
1.452,0.2737499999999999
1.456,0.27312500000000006
1.46,0.2706250000000001
1.464,0.27
1.468,0.27
1.472,0.26812500000000006
1.476,0.2656250000000001
1.48,0.2521428571428574
1.484,0.235
1.488,0.22749999999999998
1.492,0.22
1.496,0.2225
1.5,0.225
1.504,0.20750000000000002
1.508,0.19
1.512,0.1725
1.516,0.155
1.52,0.1407142857142855
1.524,0.12499999999999944
1.528,0.10499999999999944
1.532,0.08812499999999979
1.536,0.0806249999999998
1.54,0.07124999999999958
1.544,0.05624999999999958
1.548,0.04124999999999958
1.552,0.026249999999999583
1.556,0.013571428571428436
1.56,0.007857142857142813
1.564,-0.005
1.568,-0.024999999999999998
1.572,-0.04
1.576,-0.05
1.58,-0.05625
1.584,-0.05875
1.588,-0.0675
1.592,-0.08249999999999999
1.596,-0.08875
1.6,-0.08625000000000001
1.604,-0.08642857142857145
1.608,-0.08928571428571436
1.612,-0.09937500000000035
1.616,-0.11187500000000035
1.62,-0.12062500000000022
1.624,-0.1281250000000002
1.6280000000000001,-0.12812499999999993
1.6320000000000001,-0.12562499999999993
1.6360000000000001,-0.13625000000000043
1.6400000000000001,-0.1512500000000004
1.6440000000000001,-0.15714285714285725
1.6480000000000001,-0.16000000000000014
1.6520000000000001,-0.16250000000000014
1.6560000000000001,-0.16500000000000056
1.6600000000000001,-0.17500000000000054
1.6640000000000001,-0.18500000000000028
1.668,-0.19
1.672,-0.195
1.676,-0.195
1.68,-0.195
1.684,-0.20500000000000002
1.688,-0.215
1.692,-0.2121428571428572
1.696,-0.21249999999999972
1.7,-0.22249999999999973
1.704,-0.23062499999999994
1.708,-0.23312499999999992
1.712,-0.235
1.716,-0.235
1.72,-0.23624999999999985
1.724,-0.24124999999999985
1.728,-0.24571428571428564
1.732,-0.24857142857142855
1.736,-0.2525
1.74,-0.2575
1.744,-0.26
1.748,-0.26
1.752,-0.25625
1.756,-0.24875
1.76,-0.2375
1.764,-0.2225
1.768,-0.20071428571428548
1.772,-0.1721428571428565
1.776,-0.165
1.78,-0.165
1.784,-0.1725000000000003
1.788,-0.18250000000000027
1.792,-0.1906250000000002
1.796,-0.19812500000000022
1.8,-0.2075000000000003
1.804,-0.21750000000000028
1.808,-0.22857142857142876
1.812,-0.24
1.816,-0.22999999999999998
1.82,-0.22
1.824,-0.2
1.828,-0.18
1.832,-0.1925
1.836,-0.205
1.84,-0.21999999999999997
1.844,-0.235
1.848,-0.26749999999999996
1.852,-0.3
1.856,-0.3142857142857145
1.86,-0.325
1.864,-0.325
1.868,-0.325
1.872,-0.325
1.8760000000000001,-0.32437499999999997
1.8800000000000001,-0.3218749999999999
1.8840000000000001,-0.31937499999999996
1.8880000000000001,-0.3168749999999999
1.8920000000000001,-0.3164285714285716
1.8960000000000001,-0.3221428571428574
1.9000000000000001,-0.32249999999999973
1.9040000000000001,-0.3174999999999997
1.9080000000000001,-0.3112499999999996
1.9120000000000001,-0.3037499999999996
1.9160000000000001,-0.30500000000000055
1.92,-0.315
1.924,-0.32
1.928,-0.32
1.932,-0.32
1.936,-0.32
1.94,-0.3142857142857144
1.944,-0.3028571428571431
1.948,-0.28125000000000067
1.952,-0.2562500000000007
1.956,-0.20687500000000159
1.96,-0.1493750000000016
1.964,-0.16874999999999876
1.968,-0.21374999999999877
1.972,-0.3112499999999968
1.976,-0.4262499999999968
1.98,-0.6114285714285681
1.984,-0.82
1.988,-0.9849999999999999
1.992,-1.15
1.996,-1.2
2.0,-1.25
2.004,-1.3125
2.008,-1.375
2.012,-1.3725
2.016,-1.37
2.02,-1.3271428571428578
2.024,-1.2906250000000004
2.028,-1.2731250000000005
2.032,-1.2462500000000016
2.036,-1.1912500000000015
2.04,-1.1256250000000025
2.044,-1.0281250000000026
2.048,-0.9318750000000026
2.052,-0.8393750000000025
2.056,-0.7371428571428592
2.06,-0.6057142857142815
2.064,-0.5024999999999958
2.068,-0.4274999999999959
2.072,-0.36249999999999694
2.076,-0.307499999999997
2.08,-0.2599999999999978
2.084,-0.2199999999999978
2.088,-0.18499999999999833
2.092,-0.15499999999999836
2.096,-0.12874999999999875
2.1,-0.10624999999999876
2.104,-0.08357142857142749
2.108,-0.06071428571428499
2.112,-0.049374999999999794
2.116,-0.041874999999999794
2.12,-0.03624999999999986
2.124,-0.03124999999999986
2.128,-0.02249999999999972
2.132,-0.012499999999999723
2.136,0.0012500000000004157
2.14,0.016250000000000417
2.144,0.03500000000000032
2.148,0.055
2.152,0.057499999999999996
2.156,0.06
2.16,0.07
2.164,0.08
2.168,0.09
2.172,0.1
2.176,0.10750000000000001
2.18,0.115
2.184,0.125
2.188,0.135
2.192,0.15214285714285797
2.196,0.1643749999999998
2.2,0.1618749999999998
2.204,0.16250000000000084
2.208,0.17250000000000082
2.212,0.18312500000000104
2.216,0.19562500000000102
2.22,0.20687500000000061
2.224,0.21437500000000062
2.228,0.2214285714285719
2.232,0.2271428571428575
2.236,0.23375000000000043
2.24,0.2412500000000004
2.244,0.245
2.248,0.245
2.2520000000000002,0.24750000000000028
2.2560000000000002,0.2525000000000003
2.2600000000000002,0.25625000000000014
2.2640000000000002,0.25875000000000015
2.2680000000000002,0.2571428571428569
2.2720000000000002,0.2514285714285712
2.2760000000000002,0.24812499999999993
2.2800000000000002,0.24562499999999993
2.2840000000000003,0.2506250000000002
2.2880000000000003,0.2581250000000002
2.2920000000000003,0.25062499999999965
2.2960000000000003,0.23812499999999964
2.3000000000000003,0.23124999999999984
2.3040000000000003,0.22624999999999987
2.308,0.21642857142857197
2.312,0.205
2.316,0.195
2.32,0.185
2.324,0.18
2.328,0.175
2.332,0.16499999999999998
2.336,0.155
2.34,0.15
2.344,0.145
2.348,0.135
2.352,0.125
2.356,0.11071428571428595
2.36,0.09625000000000042
2.364,0.08125000000000042
2.368,0.06875000000000014
2.372,0.06375000000000014
2.376,0.05625000000000041
2.38,0.04125000000000041
2.384,0.027500000000000278
2.388,0.01750000000000028
2.392,0.009285714285714376
2.396,0.006428571428571565
2.4,5.551115123125783e-16
2.404,-0.009999999999999443
2.408,-0.017499999999999724
2.412,-0.02249999999999972
2.416,-0.03249999999999917
2.42,-0.04749999999999917
2.424,-0.05874999999999959
2.428,-0.06624999999999959
2.432,-0.07249999999999973
2.436,-0.07749999999999972
2.44,-0.08
2.444,-0.08
2.448,-0.08750000000000029
2.452,-0.09750000000000028
2.456,-0.10375000000000015
2.46,-0.10875000000000014
2.464,-0.11750000000000028
2.468,-0.12750000000000028
2.472,-0.13937500000000036
2.476,-0.15187500000000034
2.48,-0.155
2.484,-0.155
2.488,-0.16999999999999998
2.492,-0.185
2.496,-0.1825
2.5,-0.18
2.504,-0.1925
2.508,-0.205
2.512,-0.21
2.516,-0.215
2.52,-0.215
2.524,-0.21624999999999986
2.528,-0.22124999999999986
2.532,-0.22624999999999987
2.536,-0.23124999999999984
2.54,-0.23437500000000006
2.544,-0.23187500000000008
2.548,-0.23124999999999987
2.552,-0.23624999999999985
2.556,-0.24071428571428566
2.56,-0.24357142857142866
2.564,-0.245
2.568,-0.245
2.572,-0.24875000000000042
2.576,-0.2562500000000004
2.58,-0.26125000000000015
2.584,-0.26375000000000015
2.588,-0.2612499999999996
2.592,-0.2537499999999996
2.596,-0.24874999999999986
2.6,-0.24624999999999986
2.604,-0.23214285714285593
2.608,-0.20642857142857063
2.612,-0.18499999999999944
2.616,-0.16499999999999945
2.62,-0.1543749999999998
2.624,-0.14687499999999978
2.628,-0.15437500000000035
2.632,-0.16687500000000036
2.636,-0.19062500000000077
2.64,-0.21812500000000076
2.644,-0.24214285714285752
2.648,-0.265
2.652,-0.2575
2.656,-0.25
2.66,-0.2425
2.664,-0.235
2.668,-0.21999999999999997
2.672,-0.205
2.676,-0.1975
2.68,-0.19
2.684,-0.2125
2.688,-0.235
2.692,-0.2664285714285729
2.696,-0.2925000000000008
2.7,-0.3025000000000008
2.704,-0.3118750000000006
2.708,-0.31937500000000063
2.712,-0.32625000000000043
2.716,-0.33125000000000043
2.72,-0.3343749999999998
2.724,-0.3318749999999998
2.728,-0.3278571428571422
2.732,-0.31928571428571373
2.736,-0.315
2.74,-0.315
2.744,-0.3175000000000003
2.748,-0.3225000000000003
2.7520000000000002,-0.32374999999999987
2.7560000000000002,-0.32124999999999987
2.7600000000000002,-0.3174999999999997
2.7640000000000002,-0.3124999999999997
2.7680000000000002,-0.30857142857142844
2.7720000000000002,-0.3057142857142856
2.7760000000000002,-0.3106250000000002
2.7800000000000002,-0.3181250000000002
2.7840000000000003,-0.3218750000000001
2.7880000000000003,-0.3243750000000001
2.7920000000000003,-0.3006249999999991
2.7960000000000003,-0.2681249999999991
2.8000000000000003,-0.205624999999998
2.8040000000000003,-0.133124999999998
2.8080000000000003,-0.1600000000000038
2.8120000000000003,-0.2200000000000136
2.816,-0.3425
2.82,-0.465
2.824,-0.6775
2.828,-0.89
2.832,-1.06
2.836,-1.23
2.84,-1.3399999999999999
2.844,-1.45
2.848,-1.4525000000000001
2.852,-1.455
2.856,-1.4464285714285716
2.86,-1.4325000000000008
2.864,-1.4025000000000007
2.868,-1.3756250000000003
2.872,-1.3581250000000005
2.876,-1.3293750000000017
2.88,-1.2668750000000017
2.884,-1.1975000000000025
2.888,-1.1075000000000026
2.892,-1.0142857142857176
2.896,-0.9114285714285764
2.9,-0.8075000000000059
2.904,-0.7025000000000059
2.908,-0.6112500000000043
2.912,-0.5337500000000043
2.916,-0.4687500000000029
2.92,-0.4162500000000029
2.924,-0.3600000000000033
2.928,-0.3000000000000034
2.932,-0.2450000000000028
2.936,-0.19500000000000278
2.94,-0.1514285714285726
2.944,-0.11428571428571369
2.948,-0.09374999999999958
2.952,-0.07874999999999958
2.956,-0.06937499999999978
2.96,-0.06187499999999979
2.964,-0.0412499999999993
2.968,-0.016249999999999307
2.972,-0.01
2.976,-0.01
2.98,0.011428571428571883
2.984,0.04
2.988,0.037500000000000006
2.992,0.035
2.996,0.035
3.0,0.035
3.004,0.060000000000000005
3.008,0.085
3.012,0.0975
3.016,0.11
3.02,0.11571428571428562
3.024,0.12499999999999944
3.028,0.14499999999999943
3.032,0.1618749999999998
3.036,0.16937499999999978
3.04,0.1793749999999995
3.044,0.1968749999999995
3.048,0.21
3.052,0.21
3.056,0.21499999999999966
3.06,0.23500000000000063
3.064,0.24750000000000028
3.068,0.2525000000000003
3.072,0.25625000000000014
3.076,0.25875000000000015
3.08,0.26125000000000015
3.084,0.26375000000000015
3.088,0.26249999999999973
3.092,0.25749999999999973
3.096,0.2587500000000004
3.1,0.26625000000000043
3.104,0.26857142857142846
3.108,0.2657142857142856
3.112,0.2593749999999998
3.116,0.2518749999999998
3.12,0.24812499999999993
3.124,0.24562499999999993
3.128,0.24687500000000007
3.132,0.24937500000000007
3.136,0.24624999999999986
3.14,0.24124999999999985
3.144,0.23142857142857123
3.148,0.22
3.152,0.21000000000000002
3.156,0.2
3.16,0.1925
3.164,0.185
3.168,0.16999999999999998
3.172,0.155
3.176,0.14250000000000002
3.18,0.13
3.184,0.1225
3.188,0.115
3.192,0.09785714285714205
3.196,0.08062499999999855
3.2,0.06312499999999854
3.204,0.04749999999999917
3.208,0.037499999999999166
3.212,0.02687499999999896
3.216,0.014374999999998958
3.22,0.0012499999999987508
3.224,-0.01375000000000125
3.228,-0.025714285714285943
3.232,-0.02857142857142875
3.236,-0.03375000000000042
3.24,-0.04125000000000041
3.244,-0.04875000000000042
3.248,-0.05625000000000041
3.2520000000000002,-0.0662500000000007
3.2560000000000002,-0.0787500000000007
3.2600000000000002,-0.08875000000000043
3.2640000000000002,-0.09625000000000042
3.2680000000000002,-0.09857142857142843
3.2720000000000002,-0.09571428571428563
3.2760000000000002,-0.10250000000000029
3.2800000000000002,-0.11250000000000028
3.2840000000000003,-0.12062500000000022
3.2880000000000003,-0.1281250000000002
3.2920000000000003,-0.13187500000000008
3.2960000000000003,-0.13437500000000008
3.3000000000000003,-0.1425000000000003
3.3040000000000003,-0.15250000000000027
3.3080000000000003,-0.16785714285714395
3.3120000000000003,-0.18500000000000055
3.3160000000000003,-0.19000000000000056
3.3200000000000003,-0.19500000000000028
3.3240000000000003,-0.1975000000000003
3.3280000000000003,-0.2000000000000003
3.332,-0.2025
3.336,-0.205
3.34,-0.215
3.344,-0.225
3.348,-0.2375
3.352,-0.25
3.356,-0.25285714285714284
3.36,-0.25375000000000014
3.364,-0.24875000000000014
3.368,-0.24874999999999958
3.372,-0.2637499999999996
3.376,-0.27562499999999995
3.38,-0.27812499999999996
3.384,-0.28062499999999996
3.388,-0.2831249999999999
3.392,-0.2864285714285712
3.396,-0.29214285714285687
3.4,-0.29250000000000026
3.404,-0.28750000000000026
3.408,-0.28624999999999984
3.412,-0.28874999999999984
3.416,-0.28750000000000026
3.42,-0.2825000000000003
3.424,-0.27875000000000016
3.428,-0.27625000000000016
3.432,-0.2650000000000011
3.436,-0.2450000000000011
3.44,-0.2207142857142866
3.444,-0.19214285714285667
3.448,-0.17562499999999964
3.452,-0.16312499999999966
3.456,-0.1731250000000005
3.46,-0.1906250000000005
3.464,-0.21187500000000062
3.468,-0.2343750000000006
3.472,-0.2512500000000004
3.476,-0.26625000000000043
3.48,-0.27857142857142875
3.484,-0.29
3.488,-0.28
3.492,-0.27
3.496,-0.2475
3.5,-0.225
